# Athena data file -- Athena version 0.8.056
# Saving 15mM_fc_trans_nov12.txt as chi(k)
# .  Element=Fe   Edge=K
#------------------------
#   k         chi       dchi
  0.0000000       0.37632346E-01   0.0136670000000000
  0.50000000E-01   0.26876586E-01  0.0124806207726080
  0.10000000       0.16120826E-01  0.0112942415452161
  0.15000000       0.53650654E-02  0.0101078623178241
  0.20000000      -0.53906949E-02  0.0089214830904322
  0.25000000      -0.16146455E-01  0.0077351038630402
  0.30000000      -0.26902215E-01  0.0065487246356482
  0.35000000      -0.37657976E-01  0.0053623454082563
  0.40000000      -0.48413736E-01  0.0041759661808643
  0.45000000      -0.55186514E-01  0.0032455142632806
  0.50000000      -0.49720309E-01  0.0031014050189806
  0.55000000      -0.44254104E-01  0.0029572957746806
  0.60000000      -0.38787899E-01  0.0028131865303806
  0.65000000      -0.38108031E-01  0.0024648918808043
  0.70000000      -0.49457436E-01  0.0016034969759492
  0.75000000      -0.60806842E-01  0.0007421020710941
  0.80000000      -0.71059571E-01  0.0003000508171424
  0.85000000      -0.79620242E-01  0.0005049175728264
  0.90000000      -0.88180912E-01  0.0007097843285104
  0.95000000      -0.89564312E-01  0.0019270543958528
  1.0000000      -0.84510717E-01   0.0032923672084614
  1.0500000      -0.72637227E-01   0.0027137676465169
  1.1000000      -0.54680424E-01   0.0015385432438665
  1.1500000      -0.30688656E-01   0.0011305445614098
  1.2000000      -0.45584400E-02   0.0009663982354752
  1.2500000       0.20528061E-01   0.0018229683080804
  1.3000000       0.54264448E-01   0.0017823311542293
  1.3500000       0.94217555E-01   0.0006262149753172
  1.4000000       0.11953294       0.0003359035542839
  1.4500000       0.14545642       0.0002201542249491
  1.5000000       0.18362370       0.0000462884015998
  1.5500000       0.22659830       0.0007088962842977
  1.6000000       0.27169371       0.0016550988121849
  1.6500000       0.31138692       0.0022178984813888
  1.7000000       0.34050736       0.0006695201618415
  1.7500000       0.39437489       0.0016025877636547
  1.8000000       0.43599111       0.0012170109200738
  1.8500000       0.45415523       0.0009669667634658
  1.9000000       0.45177167       0.0023605312124099
  1.9500000       0.43022060       0.0027493274191690
  2.0000000       0.39938472       0.0010317978899587
  2.0500000       0.34489640       0.0010589577242389
  2.1000000       0.26787081       0.0029098897033857
  2.1500000       0.19577307       0.0004048443667884
  2.2000000       0.11390394       0.0010789982911786
  2.2500000       0.88743043E-01   0.0013739549875828
  2.3000000       0.54637853E-01   0.0025381891784442
  2.3500000       0.17915328E-01   0.0031800365407735
  2.4000000      -0.66684762E-02   0.0016069477149433
  2.4500000      -0.22255657E-01   0.0006799915673853
  2.5000000      -0.23932122E-01   0.0011816233252898
  2.5500000      -0.45205522E-01   0.0013649178383316
  2.6000000      -0.53913416E-01   0.0012281220771704
  2.6500000      -0.52977430E-01   0.0004637015306400
  2.7000000      -0.67000643E-01   0.0027436111956876
  2.7500000      -0.65655095E-01   0.0024867305304167
  2.8000000      -0.80719666E-01   0.0027417233952527
  2.8500000      -0.86537414E-01   0.0014326233426061
  2.9000000      -0.99111973E-01   0.0017015416771420
  2.9500000      -0.11590737       0.0016005073573497
  3.0000000      -0.11874018       0.0022831934186205
  3.0500000      -0.12362927       0.0039479738597096
  3.1000000      -0.13387578       0.0055924063671250
  3.1500000      -0.12479317       0.0011073467784643
  3.2000000      -0.12521189       0.0028433560638969
  3.2500000      -0.12479690       0.0028059809220438
  3.3000000      -0.11928232       0.0019690488609913
  3.3500000      -0.10838394       0.0022694342945045
  3.4000000      -0.92831438E-01   0.0015010067374949
  3.4500000      -0.87691796E-01   0.0017992959353031
  3.5000000      -0.74378947E-01   0.0004987592235079
  3.5500000      -0.60014238E-01   0.0010278813239255
  3.6000000      -0.47048384E-01   0.0013013305957915
  3.6500000      -0.31219714E-01   0.0013988575544480
  3.7000000      -0.20650280E-01   0.0013068317620473
  3.7500000      -0.13690289E-01   0.0011598073243175
  3.8000000       0.20973340E-02   0.0013823333955985
  3.8500000       0.15535327E-01   0.0015769099005136
  3.9000000       0.25499852E-01   0.0015997175577242
  3.9500000       0.34291237E-01   0.0012604059101816
  4.0000000       0.47555812E-01   0.0017981162106143
  4.0500000       0.50897481E-01   0.0017132647670696
  4.1000000       0.55586595E-01   0.0014942983093785
  4.1500000       0.70499641E-01   0.0017968747939021
  4.2000000       0.69783327E-01   0.0010457847283521
  4.2500000       0.74615061E-01   0.0024764577706035
  4.3000000       0.74135748E-01   0.0019307832101889
  4.3500000       0.71804501E-01   0.0010455186124043
  4.4000000       0.68235522E-01   0.0009631140389481
  4.4500000       0.58140833E-01   0.0000401975216808
  4.5000000       0.68427495E-01   0.0003633387929773
  4.5500000       0.58547103E-01   0.0020344401806750
  4.6000000       0.45981702E-01   0.0014490256224252
  4.6500000       0.45552415E-01   0.0003330424547729
  4.7000000       0.44034969E-01   0.0003806870801229
  4.7500000       0.26163260E-01   0.0006108372828675
  4.8000000       0.14624782E-01   0.0016809491273429
  4.8500000       0.14704411E-01   0.0029226311551155
  4.9000000      -0.95210035E-02   0.0029513372320751
  4.9500000       0.20651327E-02   0.0001264352216929
  5.0000000      -0.14062657E-01   0.0004911109270795
  5.0500000      -0.22333351E-01   0.0012867759258404
  5.1000000      -0.25520854E-01   0.0021246502405532
  5.1500000      -0.35438554E-01   0.0016243700262879
  5.2000000      -0.46393054E-01   0.0006463053742321
  5.2500000      -0.46305937E-01   0.0003943814143086
  5.3000000      -0.40090184E-01   0.0005360678927856
  5.3500000      -0.42035973E-01   0.0012375295450083
  5.4000000      -0.48229672E-01   0.0022464525701037
  5.4500000      -0.45169780E-01   0.0015149326935016
  5.5000000      -0.38698055E-01   0.0002962427770307
  5.5500000      -0.40410448E-01   0.0010643450064403
  5.6000000      -0.42276327E-01   0.0020390908155576
  5.6500000      -0.34609465E-01   0.0014621296349477
  5.7000000      -0.24813810E-01   0.0009300864629391
  5.7500000      -0.18030110E-01   0.0013698281697881
  5.8000000      -0.97866930E-02   0.0015678133047166
  5.8500000       0.14237640E-02   0.0009577813660498
  5.9000000       0.89683986E-02   0.0009698233710358
  5.9500000       0.11874741E-01   0.0016938895512415
  6.0000000       0.14261179E-01   0.0029603466206625
  6.0500000       0.17234081E-01   0.0044522737811748
  6.1000000       0.22467536E-01   0.0030982874097124
  6.1500000       0.27333940E-01   0.0020176349862341
  6.2000000       0.30023878E-01   0.0024993561198544
  6.2500000       0.30640153E-01   0.0023492957616279
  6.3000000       0.29541075E-01   0.0013843657415414
  6.3500000       0.29689075E-01   0.0011103612977946
  6.4000000       0.30283489E-01   0.0009832356982265
  6.4500000       0.30139624E-01   0.0008561100986584
  6.5000000       0.28570141E-01   0.0008061115824774
  6.5500000       0.24033727E-01   0.0008033251425800
  6.6000000       0.12120185E-01   0.0014546691547528
  6.6500000       0.69588209E-02   0.0022589653401869
  6.7000000       0.11776525E-01   0.0033217199455602
  6.7500000       0.61735477E-02   0.0025996119872325
  6.8000000      -0.24578910E-02   0.0016086732516045
  6.8500000      -0.44165560E-02   0.0019210073387477
  6.9000000      -0.52294722E-02   0.0016937867617067
  6.9500000      -0.75671617E-02   0.0015898313942770
  7.0000000      -0.12923704E-01   0.0027268547801270
  7.0500000      -0.14694838E-01   0.0038430503411228
  7.1000000      -0.13906702E-01   0.0045119087728360
  7.1500000      -0.14190107E-01   0.0030534512517507
  7.2000000      -0.14754779E-01   0.0015949937306654
  7.2500000      -0.15810327E-01   0.0007419729081022
  7.3000000      -0.17538998E-01   0.0015941131846478
  7.3500000      -0.18391345E-01   0.0024462534611935
  7.4000000      -0.17029637E-01   0.0027381156397092
  7.4500000      -0.14075407E-01   0.0022011251845215
  7.5000000      -0.12027768E-01   0.0026440119497945
  7.5500000      -0.13015826E-01   0.0019952469114155
  7.6000000      -0.14772410E-01   0.0005584560775943
  7.6500000      -0.11423695E-01   0.0014139167644023
  7.7000000      -0.22204719E-02   0.0023302770041852
  7.7500000      -0.19646022E-02   0.0019083737244469
  7.8000000      -0.91767650E-02   0.0001816838911539
  7.8500000      -0.13124484E-02   0.0005164287699862
  7.9000000      -0.21271389E-03   0.0006036428265555
  7.9500000       0.24485802E-02   0.0019966230026137
  8.0000000       0.11069213E-01   0.0056384836782213
  8.0500000       0.63624951E-02   0.0026678148082772
  8.1000000       0.73605257E-02   0.0013030425645953
  8.1500000       0.84339224E-02   0.0015943847984164
  8.2000000       0.56205610E-02   0.0023375790671100
  8.2500000       0.22557174E-02   0.0006127325390749
  8.3000000       0.16480554E-02   0.0003266306801924
  8.3500000       0.84783867E-02   0.0006614934782609
  8.4000000       0.97661230E-02   0.0015450885857347
  8.4500000       0.25524678E-02   0.0025996336363563
  8.5000000       0.96135156E-02   0.0022890324178998
  8.5500000       0.14306598E-01   0.0032851634218824
  8.6000000       0.15865109E-01   0.0043893992986357
  8.6500000       0.12810154E-01   0.0037717115923494
  8.7000000       0.10169363E-01   0.0018167318157152
  8.7500000       0.12419981E-01   0.0041941188623940
  8.8000000      -0.21904295E-02   0.0036193101240727
  8.8500000      -0.37516845E-02   0.0013045791731058
  8.9000000      -0.40311303E-03   0.0009830250889662
  8.9500000       0.59663351E-02   0.0011411140095154
  9.0000000       0.48021490E-02   0.0007005252974030
  9.0500000      -0.10283386E-01   0.0011986458911244
  9.1000000      -0.58778190E-04   0.0044288204135828
  9.1500000      -0.10252975E-01   0.0055813269676016
  9.2000000      -0.37332564E-02   0.0024721218906274
  9.2500000      -0.69383376E-02   0.0007642654083072
  9.3000000      -0.11596573E-01   0.0005223851711242
  9.3500000      -0.90105510E-02   0.0009303743501716
  9.4000000      -0.73701747E-02   0.0014291369346649
  9.4500000      -0.88568287E-02   0.0013495789736400
  9.5000000      -0.90479101E-02   0.0007022441363527
  9.5500000       0.14567305E-02   0.0029685343459396
  9.6000000      -0.11533164E-01   0.0012432647561571
  9.6500000      -0.57454787E-02   0.0005630727275786
  9.7000000      -0.49451572E-02   0.0001889287802280
  9.7500000      -0.63145900E-02   0.0009790918115057
  9.8000000      -0.43341547E-02   0.0022913850828605
  9.8500000      -0.12804011E-03   0.0027276579016970
  9.9000000      -0.45749418E-02   0.0014339522710093
  9.9500000      -0.38456581E-02   0.0006302023500557
  10.000000       0.24547042E-02    0.0013244869977427
  10.050000       0.96590287E-03    0.0012844556316575
  10.100000       0.11568740E-01    0.0013704445995306
  10.150000       0.96543086E-02    0.0007342062411522
  10.200000       0.64624725E-02    0.0025914267879141
  10.250000       0.39054424E-02    0.0038976945454754
  10.300000       0.12402684E-01    0.0024541298550199
  10.350000      -0.32168996E-03    0.0012058447190973
  10.400000       0.10854078E-01    0.0006794671880646
  10.450000       0.11137064E-01    0.0030471276498246
  10.500000       0.12622910E-01    0.0020946086386929
  10.550000       0.45061778E-02    0.0012288729144951
  10.600000       0.86502673E-02    0.0031636049894527
  10.650000      -0.12202850E-03    0.0015100985009698
  10.700000      -0.15681494E-02    0.0037719832177443
  10.750000      -0.10134258E-01    0.0033928021498217
  10.800000      -0.58964254E-02    0.0019765575137952
  10.850000       0.65583753E-03    0.0011503198379371
  10.900000       0.12299345E-02    0.0029383618165592
  10.950000      -0.38678201E-02    0.0013523317706610
  11.000000      -0.27002703E-03    0.0008821845568669
  11.050000      -0.11335096E-02    0.0015602646193797
  11.100000      -0.18531650E-02    0.0015317395101067
  11.150000      -0.20069213E-02    0.0012845424837333
  11.200000      -0.26503031E-02    0.0017043280860318
  11.250000       0.15780500E-02    0.0022008680491132
  11.300000      -0.63538539E-02    0.0038163048453813
  11.350000       0.36129981E-02    0.0014215434435948
  11.400000       0.87794744E-03    0.0013027197592436
  11.450000      -0.39617751E-02    0.0018890665201782
  11.500000      -0.57984793E-02    0.0023535501507544
  11.550000      -0.13418223E-02    0.0011524235973578
  11.600000       0.27963028E-02    0.0004620184336039
  11.650000       0.15377535E-02    0.0015147387243480
  11.700000       0.23898960E-02    0.0020069450501908
  11.750000       0.33688904E-02    0.0007672740761651
  11.800000       0.58978283E-02    0.0019070851227953
  11.850000      -0.60703709E-02    0.0018478976963988
  11.900000      -0.56113200E-03    0.0007300633669342
  11.950000      -0.63955116E-02    0.0014614969980809
  12.000000       0.30790260E-02    0.0003351169238513
  12.050000      -0.42303413E-03    0.0004325493621249
  12.100000      -0.58885563E-02    0.0006252341265397
  12.150000      -0.84963885E-02    0.0009192000791824
  12.200000      -0.83601304E-02    0.0007083475877279
  12.250000      -0.40159937E-03    0.0009779504179090
  12.300000       0.23905638E-03    0.0010825041408263
  12.350000      -0.12854885E-02    0.0010996813720870
  12.400000      -0.21174005E-02    0.0009375653001065
  12.450000      -0.88352847E-02    0.0010314823098092
  12.500000      -0.56993740E-02    0.0015430549235597
  12.550000      -0.79386420E-04    0.0012047477742798
  12.600000       0.10603243E-02    0.0017100907198638
  12.650000      -0.17607691E-02    0.0014908773620946
  12.700000       0.17316493E-02    0.0006578861285138
  12.750000       0.57600034E-02    0.0007238753960515
  12.800000       0.49018818E-02    0.0009328153768742
  12.850000       0.36778047E-02    0.0021038877873165
  12.900000       0.50346132E-02    0.0020859023151382
  12.950000      -0.20870939E-02    0.0012041021344667
  13.000000       0.48247184E-02    0.0003137915859252
  13.050000       0.31355205E-02    0.0014415090061677
  13.100000       0.19244516E-02    0.0012211070963739
  13.150000       0.26509769E-02    0.0032352989934132
  13.200000      -0.17653819E-02    0.0019612623775452
  13.250000      -0.12666615E-03    0.0034072626627092
  13.300000       0.31090429E-02    0.0009131886058799
  13.350000       0.14973301E-02    0.0024757588398394
  13.400000       0.63220820E-02    0.0007922163185664
  13.450000       0.27205442E-02    0.0021904787151767
  13.500000       0.95276105E-03    0.0028625161372141
  13.550000       0.78037912E-02    0.0001710549358913
  13.600000       0.11169556E-01    0.0011498732374540
  13.650000       0.21801969E-02    0.0023095656892289
  13.700000       0.80555584E-03    0.0014178186210878
  13.750000       0.22792346E-02    0.0022654545016952
  13.800000      -0.12530584E-02    0.0032536863566453
  13.850000      -0.63490559E-02    0.0024731039909087
  13.900000      -0.32541325E-02    0.0005174877410135
  13.950000      -0.23483194E-02    0.0016747458768736
  14.000000       0.10206309E-02    0.0010365554392071
  14.050000      -0.35683793E-03    0.0015974336045426
  14.100000       0.13165525E-02    0.0021332517608877
  14.150000      -0.13746851E-02    0.0019834222665815
  14.200000      -0.43647937E-02    0.0013492233491115
  14.250000      -0.63126891E-02    0.0010341403336321
  14.300000      -0.58785831E-02    0.0010579846528737
  14.350000      -0.54444772E-02    0.0010818289721152
  14.400000      -0.50103713E-02    0.0011056732913568
  14.450000      -0.45762653E-02    0.0011295176105984
  14.500000      -0.41421594E-02    0.0011533619298399
  14.550000      -0.37080535E-02    0.0011772062490815
  14.600000      -0.32739475E-02    0.0012010505683231
  14.650000      -0.28398416E-02    0.0012248948875647
  14.700000      -0.24057357E-02    0.0012487392068062
  14.750000      -0.19716297E-02    0.0012725835260478
  14.800000      -0.15375238E-02    0.0012964278452894
  14.850000      -0.11034179E-02    0.0013202721645309
  14.900000      -0.66931195E-03    0.0013441164837725
  14.950000      -0.22350554E-03    0.0013687166294561
  15.000000       0.62936263E-02    0.0016889634749741
  15.050000       0.12810758E-01    0.0020092103204922
